[Measurement conditions]
Sample identification,
Comment - 1,"Configuration=Reflection/Transmission, Owner=paul, Creation date=20/02/2013 12:06:42"
Comment - 2,"Goniometer=Omega/2Theta; Minimum step size 2Theta:0.0001; Minimum step size Omega:0.0001"
Comment - 3,"Sample stage=Reflection-transmission spinner; Minimum step size Phi:0.1"
Comment - 4,"Diffractometer system=EMPYREAN"
Comment - 5,"Measurement program=C:\PANalytical\Data Collector\Programs\John 25-85 1hr.xrdmp, Identifier={3B1BC07C-5EEF-4B0E-BF62-D7CE978FAC28}"
Comment - 6,"Batch program=C:\PANalytical\Data Collector\Programs\131219.xrdmp, Identifier={31C38298-C37B-48FA-AEC9-5BAA06322F9D}"
Comment - 7,""
Anode material,Cu
K-Alpha1 wavelength,1.5405980
K-Alpha2 wavelength,1.5444260
Ratio K-Alpha2/K-Alpha1,0.000
Divergence slit,Fixed,1.000
Receiving slit,0.10
Monochromator used,NO
Generator voltage, 45
Tube current, 40
File date and time,13/Dec/2019 19:37
Unit cell,
h k l, 0 0 0
Temperature [K],298
Scan axis,Gonio
Scan range,25.0065,84.9995
Scan step size,0.0170000
No. of points, 3529
Scan type,CONTINUOUS
Time per step,121.920
[Scan points]
Angle,Intensity
25.0150,306.0
25.0320,267.0
25.0490,289.0
25.0660,261.0
25.0830,288.0
25.1000,297.0
25.1170,258.0
25.1340,298.0
25.1510,258.0
25.1680,284.0
25.1850,262.0
25.2020,277.0
25.2190,276.0
25.2360,232.0
25.2530,269.0
25.2700,277.0
25.2870,288.0
25.3040,272.0
25.3210,279.0
25.3380,267.0
25.3550,267.0
25.3720,282.0
25.3890,284.0
25.4060,248.0
25.4230,268.0
25.4400,275.0
25.4570,281.0
25.4740,291.0
25.4910,274.0
25.5080,273.0
25.5250,283.0
25.5420,277.0
25.5590,285.0
25.5760,281.0
25.5930,272.0
25.6100,273.0
25.6270,271.0
25.6440,287.0
25.6610,266.0
25.6780,262.0
25.6950,254.0
25.7120,252.0
25.7290,266.0
25.7460,247.0
25.7630,268.0
25.7800,256.0
25.7970,266.0
25.8140,245.0
25.8310,274.0
25.8480,288.0
25.8650,257.0
25.8820,295.0
25.8990,276.0
25.9160,240.0
25.9330,239.0
25.9500,266.0
25.9670,282.0
25.9840,267.0
26.0010,259.0
26.0180,247.0
26.0350,253.0
26.0520,261.0
26.0690,239.0
26.0860,290.0
26.1030,249.0
26.1200,257.0
26.1370,267.0
26.1540,269.0
26.1710,272.0
26.1880,237.0
26.2050,249.0
26.2220,242.0
26.2390,254.0
26.2560,240.0
26.2730,255.0
26.2900,253.0
26.3070,258.0
26.3240,263.0
26.3410,262.0
26.3580,260.0
26.3750,273.0
26.3920,264.0
26.4090,262.0
26.4260,253.0
26.4430,266.0
26.4600,277.0
26.4770,256.0
26.4940,266.0
26.5110,272.0
26.5280,271.0
26.5450,259.0
26.5620,250.0
26.5790,261.0
26.5960,239.0
26.6130,245.0
26.6300,254.0
26.6470,254.0
26.6640,279.0
26.6810,285.0
26.6980,260.0
26.7150,253.0
26.7320,252.0
26.7490,260.0
26.7660,254.0
26.7830,266.0
26.8000,252.0
26.8170,277.0
26.8340,271.0
26.8510,274.0
26.8680,248.0
26.8850,280.0
26.9020,289.0
26.9190,253.0
26.9360,249.0
26.9530,226.0
26.9700,254.0
26.9870,247.0
27.0040,248.0
27.0210,252.0
27.0380,254.0
27.0550,241.0
27.0720,241.0
27.0890,281.0
27.1060,236.0
27.1230,252.0
27.1400,249.0
27.1570,253.0
27.1740,245.0
27.1910,251.0
27.2080,250.0
27.2250,250.0
27.2420,257.0
27.2590,260.0
27.2760,235.0
27.2930,246.0
27.3100,248.0
27.3270,266.0
27.3440,258.0
27.3610,241.0
27.3780,231.0
27.3950,230.0
27.4120,241.0
27.4290,244.0
27.4460,236.0
27.4630,253.0
27.4800,253.0
27.4970,253.0
27.5140,237.0
27.5310,233.0
27.5480,244.0
27.5650,237.0
27.5820,239.0
27.5990,229.0
27.6160,236.0
27.6330,268.0
27.6500,235.0
27.6670,222.0
27.6840,260.0
27.7010,226.0
27.7180,228.0
27.7350,242.0
27.7520,246.0
27.7690,253.0
27.7860,253.0
27.8030,253.0
27.8200,253.0
27.8370,249.0
27.8540,254.0
27.8710,273.0
27.8880,261.0
27.9050,254.0
27.9220,299.0
27.9390,245.0
27.9560,281.0
27.9730,291.0
27.9900,260.0
28.0070,267.0
28.0240,318.0
28.0410,280.0
28.0580,306.0
28.0750,267.0
28.0920,290.0
28.1090,321.0
28.1260,333.0
28.1430,367.0
28.1600,392.0
28.1770,376.0
28.1940,460.0
28.2110,438.0
28.2280,372.0
28.2450,334.0
28.2620,319.0
28.2790,283.0
28.2960,287.0
28.3130,312.0
28.3300,290.0
28.3470,282.0
28.3640,301.0
28.3810,304.0
28.3980,287.0
28.4150,279.0
28.4320,279.0
28.4490,281.0
28.4660,291.0
28.4830,298.0
28.5000,297.0
28.5170,297.0
28.5340,292.0
28.5510,307.0
28.5680,302.0
28.5850,325.0
28.6020,337.0
28.6190,330.0
28.6360,324.0
28.6530,348.0
28.6700,356.0
28.6870,418.0
28.7040,395.0
28.7210,404.0
28.7380,472.0
28.7550,550.0
28.7720,597.0
28.7890,661.0
28.8060,735.0
28.8230,777.0
28.8400,756.0
28.8570,680.0
28.8740,672.0
28.8910,610.0
28.9080,537.0
28.9250,492.0
28.9420,430.0
28.9590,450.0
28.9760,387.0
28.9930,391.0
29.0100,331.0
29.0270,358.0
29.0440,371.0
29.0610,303.0
29.0780,338.0
29.0950,318.0
29.1120,297.0
29.1290,301.0
29.1460,265.0
29.1630,302.0
29.1800,272.0
29.1970,272.0
29.2140,281.0
29.2310,280.0
29.2480,261.0
29.2650,263.0
29.2820,258.0
29.2990,274.0
29.3160,270.0
29.3330,269.0
29.3500,252.0
29.3670,249.0
29.3840,235.0
29.4010,240.0
29.4180,228.0
29.4350,247.0
29.4520,248.0
29.4690,249.0
29.4860,248.0
29.5030,256.0
29.5200,240.0
29.5370,231.0
29.5540,243.0
29.5710,255.0
29.5880,236.0
29.6050,222.0
29.6220,220.0
29.6390,240.0
29.6560,246.0
29.6730,234.0
29.6900,230.0
29.7070,231.0
29.7240,210.0
29.7410,250.0
29.7580,233.0
29.7750,241.0
29.7920,223.0
29.8090,198.0
29.8260,229.0
29.8430,236.0
29.8600,196.0
29.8770,216.0
29.8940,219.0
29.9110,234.0
29.9280,201.0
29.9450,221.0
29.9620,239.0
29.9790,221.0
29.9960,231.0
30.0130,207.0
30.0300,218.0
30.0470,241.0
30.0640,214.0
30.0810,191.0
30.0980,199.0
30.1150,194.0
30.1320,207.0
30.1490,206.0
30.1660,198.0
30.1830,189.0
30.2000,221.0
30.2170,200.0
30.2340,185.0
30.2510,182.0
30.2680,180.0
30.2850,190.0
30.3020,197.0
30.3190,199.0
30.3360,211.0
30.3530,222.0
30.3700,205.0
30.3870,198.0
30.4040,212.0
30.4210,199.0
30.4380,203.0
30.4550,211.0
30.4720,213.0
30.4890,211.0
30.5060,195.0
30.5230,188.0
30.5400,194.0
30.5570,197.0
30.5740,218.0
30.5910,215.0
30.6080,199.0
30.6250,201.0
30.6420,207.0
30.6590,189.0
30.6760,205.0
30.6930,200.0
30.7100,213.0
30.7270,184.0
30.7440,192.0
30.7610,189.0
30.7780,198.0
30.7950,180.0
30.8120,165.0
30.8290,204.0
30.8460,191.0
30.8630,190.0
30.8800,193.0
30.8970,212.0
30.9140,184.0
30.9310,199.0
30.9480,178.0
30.9650,191.0
30.9820,188.0
30.9990,185.0
31.0160,188.0
31.0330,209.0
31.0500,207.0
31.0670,207.0
31.0840,179.0
31.1010,182.0
31.1180,210.0
31.1350,203.0
31.1520,200.0
31.1690,218.0
31.1860,197.0
31.2030,200.0
31.2200,198.0
31.2370,191.0
31.2540,196.0
31.2710,198.0
31.2880,185.0
31.3050,197.0
31.3220,192.0
31.3390,185.0
31.3560,190.0
31.3730,196.0
31.3900,194.0
31.4070,179.0
31.4240,181.0
31.4410,180.0
31.4580,179.0
31.4750,177.0
31.4920,165.0
31.5090,163.0
31.5260,171.0
31.5430,172.0
31.5600,190.0
31.5770,206.0
31.5940,185.0
31.6110,176.0
31.6280,171.0
31.6450,177.0
31.6620,178.0
31.6790,175.0
31.6960,176.0
31.7130,181.0
31.7300,205.0
31.7470,203.0
31.7640,170.0
31.7810,175.0
31.7980,169.0
31.8150,185.0
31.8320,178.0
31.8490,204.0
31.8660,197.0
31.8830,184.0
31.9000,186.0
31.9170,194.0
31.9340,171.0
31.9510,174.0
31.9680,199.0
31.9850,178.0
32.0020,174.0
32.0190,184.0
32.0360,174.0
32.0530,171.0
32.0700,190.0
32.0870,170.0
32.1040,190.0
32.1210,171.0
32.1380,175.0
32.1550,179.0
32.1720,180.0
32.1890,191.0
32.2060,212.0
32.2230,174.0
32.2400,176.0
32.2570,184.0
32.2740,180.0
32.2910,164.0
32.3080,174.0
32.3250,180.0
32.3420,191.0
32.3590,203.0
32.3760,183.0
32.3930,189.0
32.4100,218.0
32.4270,215.0
32.4440,214.0
32.4610,192.0
32.4780,189.0
32.4950,198.0
32.5120,168.0
32.5290,166.0
32.5460,187.0
32.5630,183.0
32.5800,185.0
32.5970,178.0
32.6140,178.0
32.6310,176.0
32.6480,175.0
32.6650,178.0
32.6820,189.0
32.6990,168.0
32.7160,171.0
32.7330,170.0
32.7500,181.0
32.7670,174.0
32.7840,171.0
32.8010,185.0
32.8180,179.0
32.8350,182.0
32.8520,171.0
32.8690,171.0
32.8860,183.0
32.9030,186.0
32.9200,196.0
32.9370,195.0
32.9540,184.0
32.9710,166.0
32.9880,176.0
33.0050,162.0
33.0220,169.0
33.0390,167.0
33.0560,166.0
33.0730,176.0
33.0900,173.0
33.1070,165.0
33.1240,173.0
33.1410,183.0
33.1580,176.0
33.1750,162.0
33.1920,171.0
33.2090,156.0
33.2260,157.0
33.2430,171.0
33.2600,166.0
33.2770,163.0
33.2940,165.0
33.3110,158.0
33.3280,169.0
33.3450,162.0
33.3620,155.0
33.3790,161.0
33.3960,159.0
33.4130,160.0
33.4300,163.0
33.4470,164.0
33.4640,177.0
33.4810,177.0
33.4980,172.0
33.5150,181.0
33.5320,172.0
33.5490,163.0
33.5660,170.0
33.5830,168.0
33.6000,186.0
33.6170,184.0
33.6340,158.0
33.6510,165.0
33.6680,170.0
33.6850,177.0
33.7020,187.0
33.7190,194.0
33.7360,190.0
33.7530,196.0
33.7700,168.0
33.7870,176.0
33.8040,171.0
33.8210,182.0
33.8380,178.0
33.8550,172.0
33.8720,174.0
33.8890,170.0
33.9060,177.0
33.9230,173.0
33.9400,175.0
33.9570,179.0
33.9740,183.0
33.9910,191.0
34.0080,197.0
34.0250,195.0
34.0420,194.0
34.0590,187.0
34.0760,203.0
34.0930,197.0
34.1100,187.0
34.1270,169.0
34.1440,198.0
34.1610,202.0
34.1780,186.0
34.1950,199.0
34.2120,202.0
34.2290,205.0
34.2460,185.0
34.2630,190.0
34.2800,173.0
34.2970,176.0
34.3140,183.0
34.3310,181.0
34.3480,189.0
34.3650,182.0
34.3820,178.0
34.3990,173.0
34.4160,180.0
34.4330,183.0
34.4500,180.0
34.4670,198.0
34.4840,204.0
34.5010,193.0
34.5180,189.0
34.5350,205.0
34.5520,210.0
34.5690,203.0
34.5860,216.0
34.6030,222.0
34.6200,221.0
34.6370,240.0
34.6540,219.0
34.6710,225.0
34.6880,247.0
34.7050,247.0
34.7220,248.0
34.7390,263.0
34.7560,315.0
34.7730,336.0
34.7900,362.0
34.8070,409.0
34.8240,453.0
34.8410,458.0
34.8580,549.0
34.8750,605.0
34.8920,666.0
34.9090,626.0
34.9260,511.0
34.9430,503.0
34.9600,416.0
34.9770,383.0
34.9940,329.0
35.0110,338.0
35.0280,328.0
35.0450,271.0
35.0620,247.0
35.0790,260.0
35.0960,240.0
35.1130,225.0
35.1300,233.0
35.1470,226.0
35.1640,213.0
35.1810,221.0
35.1980,221.0
35.2150,217.0
35.2320,210.0
35.2490,200.0
35.2660,196.0
35.2830,191.0
35.3000,175.0
35.3170,177.0
35.3340,189.0
35.3510,176.0
35.3680,157.0
35.3850,179.0
35.4020,188.0
35.4190,164.0
35.4360,166.0
35.4530,179.0
35.4700,170.0
35.4870,178.0
35.5040,163.0
35.5210,187.0
35.5380,178.0
35.5550,178.0
35.5720,172.0
35.5890,157.0
35.6060,153.0
35.6230,163.0
35.6400,176.0
35.6570,162.0
35.6740,159.0
35.6910,159.0
35.7080,162.0
35.7250,164.0
35.7420,166.0
35.7590,175.0
35.7760,155.0
35.7930,180.0
35.8100,156.0
35.8270,168.0
35.8440,171.0
35.8610,164.0
35.8780,174.0
35.8950,154.0
35.9120,148.0
35.9290,172.0
35.9460,181.0
35.9630,155.0
35.9800,158.0
35.9970,155.0
36.0140,166.0
36.0310,174.0
36.0480,147.0
36.0650,165.0
36.0820,160.0
36.0990,147.0
36.1160,164.0
36.1330,146.0
36.1500,151.0
36.1670,164.0
36.1840,168.0
36.2010,173.0
36.2180,166.0
36.2350,169.0
36.2520,172.0
36.2690,175.0
36.2860,183.0
36.3030,186.0
36.3200,188.0
36.3370,183.0
36.3540,178.0
36.3710,165.0
36.3880,148.0
36.4050,150.0
36.4220,160.0
36.4390,166.0
36.4560,168.0
36.4730,164.0
36.4900,154.0
36.5070,156.0
36.5240,153.0
36.5410,154.0
36.5580,148.0
36.5750,158.0
36.5920,157.0
36.6090,136.0
36.6260,143.0
36.6430,135.0
36.6600,144.0
36.6770,143.0
36.6940,168.0
36.7110,148.0
36.7280,173.0
36.7450,185.0
36.7620,165.0
36.7790,176.0
36.7960,163.0
36.8130,175.0
36.8300,200.0
36.8470,190.0
36.8640,242.0
36.8810,247.0
36.8980,318.0
36.9150,294.0
36.9320,316.0
36.9490,319.0
36.9660,300.0
36.9830,270.0
37.0000,220.0
37.0170,217.0
37.0340,200.0
37.0510,165.0
37.0680,187.0
37.0850,161.0
37.1020,161.0
37.1190,159.0
37.1360,169.0
37.1530,166.0
37.1700,169.0
37.1870,151.0
37.2040,160.0
37.2210,160.0
37.2380,165.0
37.2550,172.0
37.2720,181.0
37.2890,178.0
37.3060,180.0
37.3230,195.0
37.3400,206.0
37.3570,222.0
37.3740,208.0
37.3910,194.0
37.4080,204.0
37.4250,205.0
37.4420,194.0
37.4590,190.0
37.4760,187.0
37.4930,209.0
37.5100,196.0
37.5270,186.0
37.5440,181.0
37.5610,196.0
37.5780,177.0
37.5950,173.0
37.6120,165.0
37.6290,177.0
37.6460,167.0
37.6630,166.0
37.6800,197.0
37.6970,188.0
37.7140,186.0
37.7310,208.0
37.7480,198.0
37.7650,194.0
37.7820,174.0
37.7990,194.0
37.8160,185.0
37.8330,174.0
37.8500,175.0
37.8670,177.0
37.8840,180.0
37.9010,178.0
37.9180,186.0
37.9350,203.0
37.9520,180.0
37.9690,178.0
37.9860,174.0
38.0030,182.0
38.0200,186.0
38.0370,189.0
38.0540,177.0
38.0710,180.0
38.0880,171.0
38.1050,172.0
38.1220,190.0
38.1390,185.0
38.1560,188.0
38.1730,162.0
38.1900,155.0
38.2070,157.0
38.2240,179.0
38.2410,185.0
38.2580,183.0
38.2750,185.0
38.2920,185.0
38.3090,197.0
38.3260,196.0
38.3430,193.0
38.3600,206.0
38.3770,237.0
38.3940,252.0
38.4110,243.0
38.4280,245.0
38.4450,238.0
38.4620,208.0
38.4790,198.0
38.4960,187.0
38.5130,178.0
38.5300,153.0
38.5470,168.0
38.5640,152.0
38.5810,145.0
38.5980,154.0
38.6150,145.0
38.6320,147.0
38.6490,138.0
38.6660,154.0
38.6830,129.0
38.7000,137.0
38.7170,124.0
38.7340,135.0
38.7510,171.0
38.7680,137.0
38.7850,154.0
38.8020,142.0
38.8190,164.0
38.8360,133.0
38.8530,147.0
38.8700,142.0
38.8870,138.0
38.9040,137.0
38.9210,136.0
38.9380,140.0
38.9550,148.0
38.9720,135.0
38.9890,136.0
39.0060,152.0
39.0230,141.0
39.0400,143.0
39.0570,138.0
39.0740,140.0
39.0910,138.0
39.1080,143.0
39.1250,141.0
39.1420,142.0
39.1590,160.0
39.1760,140.0
39.1930,138.0
39.2100,156.0
39.2270,150.0
39.2440,137.0
39.2610,158.0
39.2780,166.0
39.2950,159.0
39.3120,159.0
39.3290,154.0
39.3460,162.0
39.3630,171.0
39.3800,166.0
39.3970,154.0
39.4140,146.0
39.4310,163.0
39.4480,169.0
39.4650,168.0
39.4820,171.0
39.4990,161.0
39.5160,168.0
39.5330,159.0
39.5500,145.0
39.5670,149.0
39.5840,150.0
39.6010,148.0
39.6180,154.0
39.6350,153.0
39.6520,149.0
39.6690,160.0
39.6860,131.0
39.7030,140.0
39.7200,158.0
39.7370,142.0
39.7540,161.0
39.7710,143.0
39.7880,145.0
39.8050,144.0
39.8220,140.0
39.8390,140.0
39.8560,134.0
39.8730,150.0
39.8900,140.0
39.9070,147.0
39.9240,149.0
39.9410,155.0
39.9580,169.0
39.9750,150.0
39.9920,158.0
40.0090,159.0
40.0260,146.0
40.0430,145.0
40.0600,150.0
40.0770,158.0
40.0940,166.0
40.1110,156.0
40.1280,160.0
40.1450,168.0
40.1620,162.0
40.1790,167.0
40.1960,159.0
40.2130,157.0
40.2300,163.0
40.2470,166.0
40.2640,169.0
40.2810,168.0
40.2980,179.0
40.3150,181.0
40.3320,183.0
40.3490,187.0
40.3660,197.0
40.3830,199.0
40.4000,189.0
40.4170,201.0
40.4340,197.0
40.4510,201.0
40.4680,217.0
40.4850,217.0
40.5020,212.0
40.5190,228.0
40.5360,229.0
40.5530,239.0
40.5700,250.0
40.5870,277.0
40.6040,302.0
40.6210,304.0
40.6380,318.0
40.6550,370.0
40.6720,400.0
40.6890,438.0
40.7060,459.0
40.7230,539.0
40.7400,550.0
40.7570,507.0
40.7740,485.0
40.7910,444.0
40.8080,342.0
40.8250,340.0
40.8420,288.0
40.8590,313.0
40.8760,304.0
40.8930,293.0
40.9100,278.0
40.9270,302.0
40.9440,298.0
40.9610,260.0
40.9780,276.0
40.9950,283.0
41.0120,291.0
41.0290,312.0
41.0460,287.0
41.0630,318.0
41.0800,333.0
41.0970,329.0
41.1140,335.0
41.1310,338.0
41.1480,355.0
41.1650,389.0
41.1820,403.0
41.1990,427.0
41.2160,450.0
41.2330,500.0
41.2500,559.0
41.2670,591.0
41.2840,669.0
41.3010,763.0
41.3180,913.0
41.3350,1039.0
41.3520,1114.0
41.3690,1178.0
41.3860,1173.0
41.4030,1097.0
41.4200,969.0
41.4370,823.0
41.4540,712.0
41.4710,613.0
41.4880,554.0
41.5050,493.0
41.5220,420.0
41.5390,400.0
41.5560,377.0
41.5730,364.0
41.5900,323.0
41.6070,318.0
41.6240,280.0
41.6410,252.0
41.6580,271.0
41.6750,259.0
41.6920,257.0
41.7090,264.0
41.7260,216.0
41.7430,249.0
41.7600,219.0
41.7770,222.0
41.7940,240.0
41.8110,200.0
41.8280,207.0
41.8450,188.0
41.8620,205.0
41.8790,209.0
41.8960,198.0
41.9130,187.0
41.9300,165.0
41.9470,178.0
41.9640,173.0
41.9810,161.0
41.9980,156.0
42.0150,164.0
42.0320,162.0
42.0490,170.0
42.0660,157.0
42.0830,158.0
42.1000,155.0
42.1170,142.0
42.1340,151.0
42.1510,154.0
42.1680,159.0
42.1850,154.0
42.2020,144.0
42.2190,156.0
42.2360,155.0
42.2530,140.0
42.2700,129.0
42.2870,141.0
42.3040,147.0
42.3210,140.0
42.3380,136.0
42.3550,135.0
42.3720,131.0
42.3890,133.0
42.4060,136.0
42.4230,127.0
42.4400,132.0
42.4570,132.0
42.4740,136.0
42.4910,129.0
42.5080,125.0
42.5250,124.0
42.5420,117.0
42.5590,121.0
42.5760,131.0
42.5930,120.0
42.6100,128.0
42.6270,119.0
42.6440,117.0
42.6610,118.0
42.6780,120.0
42.6950,125.0
42.7120,123.0
42.7290,132.0
42.7460,124.0
42.7630,133.0
42.7800,118.0
42.7970,115.0
42.8140,132.0
42.8310,124.0
42.8480,119.0
42.8650,119.0
42.8820,127.0
42.8990,116.0
42.9160,112.0
42.9330,119.0
42.9500,126.0
42.9670,120.0
42.9840,114.0
43.0010,120.0
43.0180,121.0
43.0350,120.0
43.0520,123.0
43.0690,119.0
43.0860,104.0
43.1030,116.0
43.1200,117.0
43.1370,117.0
43.1540,123.0
43.1710,117.0
43.1880,114.0
43.2050,117.0
43.2220,116.0
43.2390,118.0
43.2560,122.0
43.2730,131.0
43.2900,119.0
43.3070,113.0
43.3240,126.0
43.3410,118.0
43.3580,112.0
43.3750,119.0
43.3920,113.0
43.4090,122.0
43.4260,110.0
43.4430,112.0
43.4600,115.0
43.4770,113.0
43.4940,129.0
43.5110,119.0
43.5280,110.0
43.5450,118.0
43.5620,123.0
43.5790,114.0
43.5960,118.0
43.6130,116.0
43.6300,121.0
43.6470,121.0
43.6640,122.0
43.6810,122.0
43.6980,115.0
43.7150,115.0
43.7320,113.0
43.7490,115.0
43.7660,119.0
43.7830,109.0
43.8000,102.0
43.8170,127.0
43.8340,128.0
43.8510,107.0
43.8680,113.0
43.8850,118.0
43.9020,102.0
43.9190,112.0
43.9360,114.0
43.9530,126.0
43.9700,122.0
43.9870,111.0
44.0040,107.0
44.0210,99.0
44.0380,112.0
44.0550,112.0
44.0720,112.0
44.0890,108.0
44.1060,106.0
44.1230,111.0
44.1400,117.0
44.1570,113.0
44.1740,107.0
44.1910,111.0
44.2080,114.0
44.2250,111.0
44.2420,109.0
44.2590,123.0
44.2760,123.0
44.2930,105.0
44.3100,104.0
44.3270,116.0
44.3440,118.0
44.3610,121.0
44.3780,111.0
44.3950,112.0
44.4120,113.0
44.4290,117.0
44.4460,118.0
44.4630,104.0
44.4800,111.0
44.4970,121.0
44.5140,126.0
44.5310,122.0
44.5480,125.0
44.5650,130.0
44.5820,113.0
44.5990,128.0
44.6160,127.0
44.6330,116.0
44.6500,125.0
44.6670,121.0
44.6840,101.0
44.7010,111.0
44.7180,112.0
44.7350,105.0
44.7520,117.0
44.7690,107.0
44.7860,123.0
44.8030,116.0
44.8200,125.0
44.8370,122.0
44.8540,115.0
44.8710,104.0
44.8880,104.0
44.9050,107.0
44.9220,108.0
44.9390,113.0
44.9560,114.0
44.9730,104.0
44.9900,97.0
45.0070,105.0
45.0240,107.0
45.0410,112.0
45.0580,101.0
45.0750,106.0
45.0920,95.0
45.1090,101.0
45.1260,111.0
45.1430,114.0
45.1600,117.0
45.1770,117.0
45.1940,112.0
45.2110,106.0
45.2280,105.0
45.2450,113.0
45.2620,100.0
45.2790,100.0
45.2960,103.0
45.3130,106.0
45.3300,100.0
45.3470,105.0
45.3640,114.0
45.3810,111.0
45.3980,106.0
45.4150,103.0
45.4320,92.0
45.4490,101.0
45.4660,97.0
45.4830,106.0
45.5000,105.0
45.5170,103.0
45.5340,92.0
45.5510,110.0
45.5680,100.0
45.5850,86.0
45.6020,118.0
45.6190,103.0
45.6360,98.0
45.6530,99.0
45.6700,94.0
45.6870,102.0
45.7040,93.0
45.7210,92.0
45.7380,117.0
45.7550,120.0
45.7720,97.0
45.7890,98.0
45.8060,105.0
45.8230,113.0
45.8400,103.0
45.8570,98.0
45.8740,90.0
45.8910,99.0
45.9080,97.0
45.9250,111.0
45.9420,113.0
45.9590,101.0
45.9760,94.0
45.9930,111.0
46.0100,102.0
46.0270,101.0
46.0440,102.0
46.0610,107.0
46.0780,108.0
46.0950,109.0
46.1120,121.0
46.1290,117.0
46.1460,118.0
46.1630,122.0
46.1800,128.0
46.1970,113.0
46.2140,114.0
46.2310,124.0
46.2480,120.0
46.2650,114.0
46.2820,115.0
46.2990,128.0
46.3160,114.0
46.3330,110.0
46.3500,111.0
46.3670,103.0
46.3840,114.0
46.4010,116.0
46.4180,115.0
46.4350,110.0
46.4520,104.0
46.4690,103.0
46.4860,109.0
46.5030,107.0
46.5200,138.0
46.5370,113.0
46.5540,115.0
46.5710,97.0
46.5880,96.0
46.6050,99.0
46.6220,102.0
46.6390,100.0
46.6560,95.0
46.6730,107.0
46.6900,122.0
46.7070,100.0
46.7240,108.0
46.7410,105.0
46.7580,97.0
46.7750,105.0
46.7920,105.0
46.8090,116.0
46.8260,125.0
46.8430,131.0
46.8600,123.0
46.8770,115.0
46.8940,120.0
46.9110,121.0
46.9280,104.0
46.9450,126.0
46.9620,136.0
46.9790,118.0
46.9960,128.0
47.0130,160.0
47.0300,180.0
47.0470,205.0
47.0640,209.0
47.0810,191.0
47.0980,165.0
47.1150,146.0
47.1320,136.0
47.1490,129.0
47.1660,113.0
47.1830,103.0
47.2000,102.0
47.2170,118.0
47.2340,125.0
47.2510,112.0
47.2680,109.0
47.2850,100.0
47.3020,99.0
47.3190,104.0
47.3360,104.0
47.3530,113.0
47.3700,113.0
47.3870,94.0
47.4040,96.0
47.4210,105.0
47.4380,109.0
47.4550,107.0
47.4720,108.0
47.4890,100.0
47.5060,105.0
47.5230,121.0
47.5400,96.0
47.5570,96.0
47.5740,102.0
47.5910,100.0
47.6080,102.0
47.6250,102.0
47.6420,99.0
47.6590,109.0
47.6760,112.0
47.6930,100.0
47.7100,102.0
47.7270,113.0
47.7440,114.0
47.7610,116.0
47.7780,108.0
47.7950,99.0
47.8120,97.0
47.8290,104.0
47.8460,106.0
47.8630,105.0
47.8800,112.0
47.8970,112.0
47.9140,112.0
47.9310,116.0
47.9480,110.0
47.9650,118.0
47.9820,122.0
47.9990,106.0
48.0160,109.0
48.0330,112.0
48.0500,105.0
48.0670,101.0
48.0840,91.0
48.1010,101.0
48.1180,112.0
48.1350,111.0
48.1520,108.0
48.1690,104.0
48.1860,103.0
48.2030,97.0
48.2200,94.0
48.2370,101.0
48.2540,107.0
48.2710,106.0
48.2880,107.0
48.3050,108.0
48.3220,97.0
48.3390,96.0
48.3560,103.0
48.3730,104.0
48.3900,96.0
48.4070,92.0
48.4240,100.0
48.4410,109.0
48.4580,89.0
48.4750,95.0
48.4920,91.0
48.5090,89.0
48.5260,97.0
48.5430,106.0
48.5600,95.0
48.5770,96.0
48.5940,106.0
48.6110,101.0
48.6280,107.0
48.6450,85.0
48.6620,87.0
48.6790,103.0
48.6960,100.0
48.7130,101.0
48.7300,93.0
48.7470,98.0
48.7640,102.0
48.7810,102.0
48.7980,95.0
48.8150,92.0
48.8320,104.0
48.8490,103.0
48.8660,98.0
48.8830,101.0
48.9000,101.0
48.9170,105.0
48.9340,95.0
48.9510,94.0
48.9680,93.0
48.9850,93.0
49.0020,105.0
49.0190,97.0
49.0360,95.0
49.0530,93.0
49.0700,95.0
49.0870,105.0
49.1040,106.0
49.1210,95.0
49.1380,96.0
49.1550,100.0
49.1720,107.0
49.1890,95.0
49.2060,95.0
49.2230,103.0
49.2400,111.0
49.2570,103.0
49.2740,98.0
49.2910,94.0
49.3080,101.0
49.3250,105.0
49.3420,96.0
49.3590,107.0
49.3760,97.0
49.3930,95.0
49.4100,99.0
49.4270,90.0
49.4440,94.0
49.4610,104.0
49.4780,105.0
49.4950,111.0
49.5120,102.0
49.5290,96.0
49.5460,98.0
49.5630,83.0
49.5800,104.0
49.5970,112.0
49.6140,113.0
49.6310,98.0
49.6480,105.0
49.6650,114.0
49.6820,102.0
49.6990,116.0
49.7160,103.0
49.7330,103.0
49.7500,105.0
49.7670,102.0
49.7840,92.0
49.8010,101.0
49.8180,94.0
49.8350,113.0
49.8520,103.0
49.8690,97.0
49.8860,97.0
49.9030,94.0
49.9200,103.0
49.9370,107.0
49.9540,91.0
49.9710,90.0
49.9880,97.0
50.0050,102.0
50.0220,98.0
50.0390,100.0
50.0560,101.0
50.0730,96.0
50.0900,98.0
50.1070,100.0
50.1240,104.0
50.1410,103.0
50.1580,100.0
50.1750,106.0
50.1920,118.0
50.2090,103.0
50.2260,95.0
50.2430,97.0
50.2600,96.0
50.2770,104.0
50.2940,95.0
50.3110,95.0
50.3280,105.0
50.3450,99.0
50.3620,96.0
50.3790,126.0
50.3960,116.0
50.4130,120.0
50.4300,110.0
50.4470,114.0
50.4640,112.0
50.4810,122.0
50.4980,119.0
50.5150,105.0
50.5320,126.0
50.5490,125.0
50.5660,131.0
50.5830,123.0
50.6000,120.0
50.6170,154.0
50.6340,137.0
50.6510,143.0
50.6680,134.0
50.6850,149.0
50.7020,135.0
50.7190,152.0
50.7360,189.0
50.7530,191.0
50.7700,207.0
50.7870,199.0
50.8040,228.0
50.8210,235.0
50.8380,220.0
50.8550,204.0
50.8720,196.0
50.8890,176.0
50.9060,157.0
50.9230,157.0
50.9400,138.0
50.9570,123.0
50.9740,120.0
50.9910,124.0
51.0080,116.0
51.0250,116.0
51.0420,107.0
51.0590,112.0
51.0760,117.0
51.0930,112.0
51.1100,111.0
51.1270,108.0
51.1440,102.0
51.1610,107.0
51.1780,110.0
51.1950,103.0
51.2120,105.0
51.2290,105.0
51.2460,102.0
51.2630,115.0
51.2800,107.0
51.2970,103.0
51.3140,102.0
51.3310,120.0
51.3480,104.0
51.3650,103.0
51.3820,112.0
51.3990,89.0
51.4160,98.0
51.4330,108.0
51.4500,99.0
51.4670,95.0
51.4840,100.0
51.5010,96.0
51.5180,121.0
51.5350,93.0
51.5520,104.0
51.5690,105.0
51.5860,113.0
51.6030,94.0
51.6200,97.0
51.6370,112.0
51.6540,103.0
51.6710,108.0
51.6880,101.0
51.7050,90.0
51.7220,87.0
51.7390,99.0
51.7560,100.0
51.7730,94.0
51.7900,98.0
51.8070,116.0
51.8240,110.0
51.8410,109.0
51.8580,116.0
51.8750,95.0
51.8920,101.0
51.9090,99.0
51.9260,104.0
51.9430,104.0
51.9600,98.0
51.9770,108.0
51.9940,107.0
52.0110,103.0
52.0280,106.0
52.0450,110.0
52.0620,107.0
52.0790,103.0
52.0960,102.0
52.1130,97.0
52.1300,96.0
52.1470,92.0
52.1640,100.0
52.1810,99.0
52.1980,98.0
52.2150,103.0
52.2320,104.0
52.2490,93.0
52.2660,96.0
52.2830,95.0
52.3000,100.0
52.3170,118.0
52.3340,99.0
52.3510,101.0
52.3680,107.0
52.3850,108.0
52.4020,102.0
52.4190,96.0
52.4360,92.0
52.4530,101.0
52.4700,110.0
52.4870,104.0
52.5040,93.0
52.5210,103.0
52.5380,96.0
52.5550,116.0
52.5720,101.0
52.5890,111.0
52.6060,102.0
52.6230,104.0
52.6400,94.0
52.6570,105.0
52.6740,100.0
52.6910,110.0
52.7080,89.0
52.7250,91.0
52.7420,94.0
52.7590,102.0
52.7760,91.0
52.7930,93.0
52.8100,105.0
52.8270,105.0
52.8440,94.0
52.8610,104.0
52.8780,99.0
52.8950,101.0
52.9120,105.0
52.9290,95.0
52.9460,104.0
52.9630,101.0
52.9800,91.0
52.9970,95.0
53.0140,104.0
53.0310,105.0
53.0480,102.0
53.0650,102.0
53.0820,102.0
53.0990,111.0
53.1160,116.0
53.1330,107.0
53.1500,102.0
53.1670,107.0
53.1840,108.0
53.2010,115.0
53.2180,105.0
53.2350,96.0
53.2520,119.0
53.2690,117.0
53.2860,105.0
53.3030,99.0
53.3200,86.0
53.3370,97.0
53.3540,112.0
53.3710,100.0
53.3880,106.0
53.4050,104.0
53.4220,90.0
53.4390,96.0
53.4560,100.0
53.4730,103.0
53.4900,99.0
53.5070,92.0
53.5240,84.0
53.5410,114.0
53.5580,105.0
53.5750,95.0
53.5920,96.0
53.6090,96.0
53.6260,111.0
53.6430,121.0
53.6600,105.0
53.6770,107.0
53.6940,113.0
53.7110,98.0
53.7280,111.0
53.7450,116.0
53.7620,108.0
53.7790,109.0
53.7960,117.0
53.8130,118.0
53.8300,107.0
53.8470,113.0
53.8640,107.0
53.8810,109.0
53.8980,102.0
53.9150,103.0
53.9320,101.0
53.9490,103.0
53.9660,107.0
53.9830,115.0
54.0000,118.0
54.0170,115.0
54.0340,111.0
54.0510,114.0
54.0680,118.0
54.0850,108.0
54.1020,111.0
54.1190,120.0
54.1360,127.0
54.1530,122.0
54.1700,119.0
54.1870,115.0
54.2040,115.0
54.2210,116.0
54.2380,110.0
54.2550,106.0
54.2720,121.0
54.2890,113.0
54.3060,111.0
54.3230,113.0
54.3400,110.0
54.3570,116.0
54.3740,130.0
54.3910,116.0
54.4080,106.0
54.4250,110.0
54.4420,111.0
54.4590,108.0
54.4760,98.0
54.4930,112.0
54.5100,109.0
54.5270,104.0
54.5440,108.0
54.5610,96.0
54.5780,124.0
54.5950,114.0
54.6120,114.0
54.6290,113.0
54.6460,110.0
54.6630,110.0
54.6800,112.0
54.6970,110.0
54.7140,113.0
54.7310,126.0
54.7480,115.0
54.7650,114.0
54.7820,114.0
54.7990,118.0
54.8160,125.0
54.8330,117.0
54.8500,124.0
54.8670,129.0
54.8840,128.0
54.9010,120.0
54.9180,117.0
54.9350,114.0
54.9520,116.0
54.9690,121.0
54.9860,117.0
55.0030,121.0
55.0200,121.0
55.0370,117.0
55.0540,112.0
55.0710,114.0
55.0880,113.0
55.1050,117.0
55.1220,121.0
55.1390,111.0
55.1560,119.0
55.1730,129.0
55.1900,128.0
55.2070,116.0
55.2240,123.0
55.2410,117.0
55.2580,124.0
55.2750,122.0
55.2920,127.0
55.3090,125.0
55.3260,112.0
55.3430,122.0
55.3600,125.0
55.3770,131.0
55.3940,128.0
55.4110,119.0
55.4280,122.0
55.4450,128.0
55.4620,126.0
55.4790,123.0
55.4960,126.0
55.5130,132.0
55.5300,125.0
55.5470,143.0
55.5640,140.0
55.5810,142.0
55.5980,136.0
55.6150,128.0
55.6320,141.0
55.6490,157.0
55.6660,164.0
55.6830,151.0
55.7000,167.0
55.7170,159.0
55.7340,158.0
55.7510,186.0
55.7680,182.0
55.7850,187.0
55.8020,195.0
55.8190,195.0
55.8360,186.0
55.8530,177.0
55.8700,181.0
55.8870,184.0
55.9040,169.0
55.9210,172.0
55.9380,174.0
55.9550,165.0
55.9720,150.0
55.9890,143.0
56.0060,134.0
56.0230,139.0
56.0400,142.0
56.0570,141.0
56.0740,136.0
56.0910,128.0
56.1080,131.0
56.1250,132.0
56.1420,131.0
56.1590,126.0
56.1760,133.0
56.1930,121.0
56.2100,115.0
56.2270,125.0
56.2440,117.0
56.2610,121.0
56.2780,117.0
56.2950,121.0
56.3120,124.0
56.3290,124.0
56.3460,117.0
56.3630,123.0
56.3800,124.0
56.3970,118.0
56.4140,120.0
56.4310,113.0
56.4480,121.0
56.4650,132.0
56.4820,129.0
56.4990,125.0
56.5160,119.0
56.5330,132.0
56.5500,115.0
56.5670,102.0
56.5840,121.0
56.6010,120.0
56.6180,134.0
56.6350,122.0
56.6520,117.0
56.6690,124.0
56.6860,119.0
56.7030,115.0
56.7200,123.0
56.7370,122.0
56.7540,126.0
56.7710,123.0
56.7880,112.0
56.8050,119.0
56.8220,121.0
56.8390,114.0
56.8560,115.0
56.8730,106.0
56.8900,107.0
56.9070,111.0
56.9240,119.0
56.9410,120.0
56.9580,116.0
56.9750,118.0
56.9920,118.0
57.0090,112.0
57.0260,114.0
57.0430,113.0
57.0600,117.0
57.0770,119.0
57.0940,118.0
57.1110,114.0
57.1280,113.0
57.1450,113.0
57.1620,104.0
57.1790,106.0
57.1960,123.0
57.2130,128.0
57.2300,114.0
57.2470,121.0
57.2640,118.0
57.2810,114.0
57.2980,108.0
57.3150,109.0
57.3320,121.0
57.3490,107.0
57.3660,116.0
57.3830,112.0
57.4000,132.0
57.4170,119.0
57.4340,112.0
57.4510,110.0
57.4680,121.0
57.4850,124.0
57.5020,110.0
57.5190,118.0
57.5360,120.0
57.5530,110.0
57.5700,123.0
57.5870,115.0
57.6040,94.0
57.6210,101.0
57.6380,110.0
57.6550,115.0
57.6720,101.0
57.6890,108.0
57.7060,121.0
57.7230,122.0
57.7400,114.0
57.7570,108.0
57.7740,114.0
57.7910,116.0
57.8080,112.0
57.8250,119.0
57.8420,122.0
57.8590,112.0
57.8760,109.0
57.8930,117.0
57.9100,123.0
57.9270,124.0
57.9440,122.0
57.9610,123.0
57.9780,122.0
57.9950,116.0
58.0120,117.0
58.0290,129.0
58.0460,136.0
58.0630,141.0
58.0800,135.0
58.0970,138.0
58.1140,156.0
58.1310,156.0
58.1480,159.0
58.1650,167.0
58.1820,165.0
58.1990,167.0
58.2160,156.0
58.2330,149.0
58.2500,135.0
58.2670,127.0
58.2840,133.0
58.3010,121.0
58.3180,117.0
58.3350,118.0
58.3520,125.0
58.3690,113.0
58.3860,112.0
58.4030,115.0
58.4200,125.0
58.4370,121.0
58.4540,101.0
58.4710,106.0
58.4880,119.0
58.5050,110.0
58.5220,106.0
58.5390,108.0
58.5560,117.0
58.5730,124.0
58.5900,106.0
58.6070,113.0
58.6240,123.0
58.6410,117.0
58.6580,103.0
58.6750,109.0
58.6920,109.0
58.7090,115.0
58.7260,104.0
58.7430,94.0
58.7600,108.0
58.7770,106.0
58.7940,108.0
58.8110,108.0
58.8280,114.0
58.8450,106.0
58.8620,103.0
58.8790,104.0
58.8960,103.0
58.9130,106.0
58.9300,114.0
58.9470,119.0
58.9640,115.0
58.9810,109.0
58.9980,113.0
59.0150,110.0
59.0320,111.0
59.0490,113.0
59.0660,114.0
59.0830,120.0
59.1000,120.0
59.1170,111.0
59.1340,105.0
59.1510,115.0
59.1680,115.0
59.1850,109.0
59.2020,101.0
59.2190,115.0
59.2360,110.0
59.2530,105.0
59.2700,113.0
59.2870,98.0
59.3040,103.0
59.3210,107.0
59.3380,116.0
59.3550,105.0
59.3720,120.0
59.3890,122.0
59.4060,117.0
59.4230,128.0
59.4400,109.0
59.4570,96.0
59.4740,102.0
59.4910,111.0
59.5080,110.0
59.5250,110.0
59.5420,107.0
59.5590,100.0
59.5760,114.0
59.5930,104.0
59.6100,110.0
59.6270,104.0
59.6440,110.0
59.6610,109.0
59.6780,108.0
59.6950,118.0
59.7120,116.0
59.7290,108.0
59.7460,111.0
59.7630,113.0
59.7800,116.0
59.7970,107.0
59.8140,118.0
59.8310,106.0
59.8480,109.0
59.8650,108.0
59.8820,106.0
59.8990,110.0
59.9160,114.0
59.9330,123.0
59.9500,116.0
59.9670,113.0
59.9840,115.0
60.0010,120.0
60.0180,115.0
60.0350,113.0
60.0520,117.0
60.0690,117.0
60.0860,114.0
60.1030,121.0
60.1200,116.0
60.1370,123.0
60.1540,121.0
60.1710,113.0
60.1880,112.0
60.2050,111.0
60.2220,118.0
60.2390,109.0
60.2560,112.0
60.2730,104.0
60.2900,110.0
60.3070,111.0
60.3240,111.0
60.3410,120.0
60.3580,118.0
60.3750,115.0
60.3920,120.0
60.4090,110.0
60.4260,110.0
60.4430,103.0
60.4600,110.0
60.4770,109.0
60.4940,112.0
60.5110,120.0
60.5280,106.0
60.5450,117.0
60.5620,106.0
60.5790,110.0
60.5960,111.0
60.6130,119.0
60.6300,124.0
60.6470,101.0
60.6640,108.0
60.6810,112.0
60.6980,107.0
60.7150,113.0
60.7320,109.0
60.7490,100.0
60.7660,102.0
60.7830,113.0
60.8000,114.0
60.8170,110.0
60.8340,104.0
60.8510,98.0
60.8680,95.0
60.8850,104.0
60.9020,117.0
60.9190,108.0
60.9360,103.0
60.9530,99.0
60.9700,106.0
60.9870,114.0
61.0040,108.0
61.0210,98.0
61.0380,98.0
61.0550,103.0
61.0720,102.0
61.0890,98.0
61.1060,102.0
61.1230,105.0
61.1400,99.0
61.1570,109.0
61.1740,110.0
61.1910,105.0
61.2080,113.0
61.2250,109.0
61.2420,111.0
61.2590,102.0
61.2760,102.0
61.2930,110.0
61.3100,101.0
61.3270,105.0
61.3440,89.0
61.3610,99.0
61.3780,110.0
61.3950,108.0
61.4120,108.0
61.4290,104.0
61.4460,113.0
61.4630,116.0
61.4800,104.0
61.4970,101.0
61.5140,94.0
61.5310,111.0
61.5480,110.0
61.5650,107.0
61.5820,102.0
61.5990,103.0
61.6160,102.0
61.6330,100.0
61.6500,103.0
61.6670,107.0
61.6840,102.0
61.7010,113.0
61.7180,105.0
61.7350,108.0
61.7520,104.0
61.7690,108.0
61.7860,102.0
61.8030,100.0
61.8200,112.0
61.8370,112.0
61.8540,110.0
61.8710,104.0
61.8880,108.0
61.9050,100.0
61.9220,98.0
61.9390,96.0
61.9560,96.0
61.9730,103.0
61.9900,109.0
62.0070,105.0
62.0240,104.0
62.0410,102.0
62.0580,104.0
62.0750,104.0
62.0920,101.0
62.1090,99.0
62.1260,97.0
62.1430,91.0
62.1600,92.0
62.1770,99.0
62.1940,110.0
62.2110,110.0
62.2280,106.0
62.2450,103.0
62.2620,112.0
62.2790,114.0
62.2960,107.0
62.3130,107.0
62.3300,101.0
62.3470,114.0
62.3640,98.0
62.3810,107.0
62.3980,111.0
62.4150,104.0
62.4320,107.0
62.4490,101.0
62.4660,93.0
62.4830,115.0
62.5000,102.0
62.5170,102.0
62.5340,96.0
62.5510,99.0
62.5680,96.0
62.5850,115.0
62.6020,110.0
62.6190,107.0
62.6360,105.0
62.6530,113.0
62.6700,102.0
62.6870,99.0
62.7040,105.0
62.7210,107.0
62.7380,100.0
62.7550,108.0
62.7720,107.0
62.7890,109.0
62.8060,110.0
62.8230,105.0
62.8400,101.0
62.8570,97.0
62.8740,104.0
62.8910,116.0
62.9080,109.0
62.9250,98.0
62.9420,105.0
62.9590,104.0
62.9760,106.0
62.9930,97.0
63.0100,99.0
63.0270,104.0
63.0440,91.0
63.0610,95.0
63.0780,99.0
63.0950,104.0
63.1120,104.0
63.1290,107.0
63.1460,98.0
63.1630,92.0
63.1800,100.0
63.1970,104.0
63.2140,104.0
63.2310,97.0
63.2480,95.0
63.2650,89.0
63.2820,98.0
63.2990,108.0
63.3160,96.0
63.3330,108.0
63.3500,100.0
63.3670,114.0
63.3840,99.0
63.4010,98.0
63.4180,105.0
63.4350,99.0
63.4520,95.0
63.4690,88.0
63.4860,99.0
63.5030,96.0
63.5200,108.0
63.5370,105.0
63.5540,104.0
63.5710,113.0
63.5880,104.0
63.6050,106.0
63.6220,114.0
63.6390,92.0
63.6560,108.0
63.6730,117.0
63.6900,115.0
63.7070,98.0
63.7240,95.0
63.7410,97.0
63.7580,97.0
63.7750,100.0
63.7920,98.0
63.8090,104.0
63.8260,105.0
63.8430,108.0
63.8600,111.0
63.8770,110.0
63.8940,108.0
63.9110,103.0
63.9280,109.0
63.9450,115.0
63.9620,109.0
63.9790,104.0
63.9960,104.0
64.0130,108.0
64.0300,107.0
64.0470,116.0
64.0640,117.0
64.0810,113.0
64.0980,121.0
64.1150,124.0
64.1320,122.0
64.1490,135.0
64.1660,130.0
64.1830,124.0
64.2000,111.0
64.2170,141.0
64.2340,119.0
64.2510,122.0
64.2680,129.0
64.2850,116.0
64.3020,126.0
64.3190,125.0
64.3360,109.0
64.3530,111.0
64.3700,122.0
64.3870,119.0
64.4040,116.0
64.4210,100.0
64.4380,105.0
64.4550,101.0
64.4720,114.0
64.4890,115.0
64.5060,102.0
64.5230,110.0
64.5400,100.0
64.5570,104.0
64.5740,98.0
64.5910,93.0
64.6080,98.0
64.6250,104.0
64.6420,109.0
64.6590,114.0
64.6760,103.0
64.6930,104.0
64.7100,96.0
64.7270,87.0
64.7440,97.0
64.7610,102.0
64.7780,98.0
64.7950,95.0
64.8120,101.0
64.8290,106.0
64.8460,101.0
64.8630,98.0
64.8800,98.0
64.8970,100.0
64.9140,108.0
64.9310,116.0
64.9480,115.0
64.9650,106.0
64.9820,97.0
64.9990,92.0
65.0160,103.0
65.0330,100.0
65.0500,98.0
65.0670,103.0
65.0840,105.0
65.1010,94.0
65.1180,108.0
65.1350,104.0
65.1520,96.0
65.1690,101.0
65.1860,110.0
65.2030,98.0
65.2200,98.0
65.2370,101.0
65.2540,103.0
65.2710,96.0
65.2880,100.0
65.3050,93.0
65.3220,91.0
65.3390,95.0
65.3560,101.0
65.3730,101.0
65.3900,104.0
65.4070,115.0
65.4240,90.0
65.4410,97.0
65.4580,111.0
65.4750,109.0
65.4920,101.0
65.5090,96.0
65.5260,105.0
65.5430,102.0
65.5600,98.0
65.5770,101.0
65.5940,110.0
65.6110,105.0
65.6280,99.0
65.6450,98.0
65.6620,97.0
65.6790,104.0
65.6960,110.0
65.7130,96.0
65.7300,103.0
65.7470,109.0
65.7640,104.0
65.7810,99.0
65.7980,109.0
65.8150,108.0
65.8320,100.0
65.8490,98.0
65.8660,95.0
65.8830,103.0
65.9000,108.0
65.9170,100.0
65.9340,112.0
65.9510,113.0
65.9680,101.0
65.9850,98.0
66.0020,116.0
66.0190,112.0
66.0360,100.0
66.0530,101.0
66.0700,111.0
66.0870,98.0
66.1040,102.0
66.1210,103.0
66.1380,98.0
66.1550,100.0
66.1720,102.0
66.1890,103.0
66.2060,105.0
66.2230,108.0
66.2400,115.0
66.2570,115.0
66.2740,116.0
66.2910,127.0
66.3080,117.0
66.3250,128.0
66.3420,101.0
66.3590,114.0
66.3760,124.0
66.3930,132.0
66.4100,109.0
66.4270,111.0
66.4440,116.0
66.4610,116.0
66.4780,123.0
66.4950,118.0
66.5120,105.0
66.5290,111.0
66.5460,126.0
66.5630,115.0
66.5800,108.0
66.5970,107.0
66.6140,107.0
66.6310,110.0
66.6480,110.0
66.6650,112.0
66.6820,115.0
66.6990,118.0
66.7160,114.0
66.7330,115.0
66.7500,110.0
66.7670,108.0
66.7840,113.0
66.8010,114.0
66.8180,115.0
66.8350,110.0
66.8520,113.0
66.8690,122.0
66.8860,111.0
66.9030,110.0
66.9200,112.0
66.9370,116.0
66.9540,115.0
66.9710,117.0
66.9880,118.0
67.0050,121.0
67.0220,116.0
67.0390,111.0
67.0560,125.0
67.0730,114.0
67.0900,119.0
67.1070,115.0
67.1240,135.0
67.1410,122.0
67.1580,112.0
67.1750,114.0
67.1920,119.0
67.2090,121.0
67.2260,135.0
67.2430,119.0
67.2600,118.0
67.2770,120.0
67.2940,127.0
67.3110,142.0
67.3280,131.0
67.3450,119.0
67.3620,135.0
67.3790,144.0
67.3960,154.0
67.4130,168.0
67.4300,169.0
67.4470,157.0
67.4640,163.0
67.4810,170.0
67.4980,182.0
67.5150,184.0
67.5320,199.0
67.5490,213.0
67.5660,249.0
67.5830,257.0
67.6000,286.0
67.6170,310.0
67.6340,332.0
67.6510,341.0
67.6680,361.0
67.6850,373.0
67.7020,367.0
67.7190,335.0
67.7360,309.0
67.7530,280.0
67.7700,266.0
67.7870,247.0
67.8040,228.0
67.8210,225.0
67.8380,205.0
67.8550,183.0
67.8720,173.0
67.8890,173.0
67.9060,161.0
67.9230,150.0
67.9400,144.0
67.9570,147.0
67.9740,146.0
67.9910,139.0
68.0080,134.0
68.0250,133.0
68.0420,125.0
68.0590,131.0
68.0760,139.0
68.0930,132.0
68.1100,125.0
68.1270,126.0
68.1440,128.0
68.1610,110.0
68.1780,130.0
68.1950,111.0
68.2120,118.0
68.2290,101.0
68.2460,116.0
68.2630,117.0
68.2800,121.0
68.2970,114.0
68.3140,129.0
68.3310,115.0
68.3480,119.0
68.3650,129.0
68.3820,129.0
68.3990,120.0
68.4160,124.0
68.4330,116.0
68.4500,127.0
68.4670,118.0
68.4840,116.0
68.5010,128.0
68.5180,128.0
68.5350,124.0
68.5520,113.0
68.5690,115.0
68.5860,112.0
68.6030,121.0
68.6200,121.0
68.6370,122.0
68.6540,108.0
68.6710,106.0
68.6880,116.0
68.7050,114.0
68.7220,111.0
68.7390,113.0
68.7560,115.0
68.7730,117.0
68.7900,119.0
68.8070,120.0
68.8240,121.0
68.8410,121.0
68.8580,122.0
68.8750,128.0
68.8920,126.0
68.9090,134.0
68.9260,133.0
68.9430,131.0
68.9600,124.0
68.9770,126.0
68.9940,125.0
69.0110,117.0
69.0280,115.0
69.0450,117.0
69.0620,107.0
69.0790,114.0
69.0960,106.0
69.1130,118.0
69.1300,112.0
69.1470,107.0
69.1640,119.0
69.1810,108.0
69.1980,99.0
69.2150,109.0
69.2320,104.0
69.2490,124.0
69.2660,106.0
69.2830,114.0
69.3000,116.0
69.3170,112.0
69.3340,98.0
69.3510,91.0
69.3680,107.0
69.3850,109.0
69.4020,102.0
69.4190,100.0
69.4360,99.0
69.4530,108.0
69.4700,103.0
69.4870,96.0
69.5040,111.0
69.5210,112.0
69.5380,105.0
69.5550,93.0
69.5720,95.0
69.5890,102.0
69.6060,100.0
69.6230,102.0
69.6400,116.0
69.6570,113.0
69.6740,103.0
69.6910,105.0
69.7080,97.0
69.7250,107.0
69.7420,117.0
69.7590,111.0
69.7760,99.0
69.7930,99.0
69.8100,109.0
69.8270,111.0
69.8440,106.0
69.8610,97.0
69.8780,106.0
69.8950,119.0
69.9120,115.0
69.9290,106.0
69.9460,105.0
69.9630,104.0
69.9800,104.0
69.9970,100.0
70.0140,106.0
70.0310,97.0
70.0480,104.0
70.0650,106.0
70.0820,112.0
70.0990,96.0
70.1160,110.0
70.1330,95.0
70.1500,105.0
70.1670,110.0
70.1840,95.0
70.2010,111.0
70.2180,104.0
70.2350,124.0
70.2520,109.0
70.2690,98.0
70.2860,106.0
70.3030,103.0
70.3200,109.0
70.3370,102.0
70.3540,110.0
70.3710,102.0
70.3880,96.0
70.4050,106.0
70.4220,107.0
70.4390,111.0
70.4560,104.0
70.4730,97.0
70.4900,98.0
70.5070,97.0
70.5240,99.0
70.5410,101.0
70.5580,102.0
70.5750,104.0
70.5920,103.0
70.6090,99.0
70.6260,103.0
70.6430,110.0
70.6600,104.0
70.6770,108.0
70.6940,105.0
70.7110,104.0
70.7280,107.0
70.7450,103.0
70.7620,98.0
70.7790,102.0
70.7960,101.0
70.8130,94.0
70.8300,96.0
70.8470,106.0
70.8640,110.0
70.8810,105.0
70.8980,110.0
70.9150,114.0
70.9320,106.0
70.9490,112.0
70.9660,105.0
70.9830,95.0
71.0000,108.0
71.0170,103.0
71.0340,106.0
71.0510,115.0
71.0680,108.0
71.0850,101.0
71.1020,108.0
71.1190,119.0
71.1360,120.0
71.1530,102.0
71.1700,114.0
71.1870,108.0
71.2040,107.0
71.2210,111.0
71.2380,106.0
71.2550,110.0
71.2720,112.0
71.2890,99.0
71.3060,92.0
71.3230,118.0
71.3400,115.0
71.3570,110.0
71.3740,121.0
71.3910,122.0
71.4080,110.0
71.4250,116.0
71.4420,111.0
71.4590,129.0
71.4760,118.0
71.4930,130.0
71.5100,122.0
71.5270,120.0
71.5440,119.0
71.5610,126.0
71.5780,127.0
71.5950,124.0
71.6120,127.0
71.6290,129.0
71.6460,113.0
71.6630,119.0
71.6800,119.0
71.6970,116.0
71.7140,119.0
71.7310,118.0
71.7480,118.0
71.7650,124.0
71.7820,123.0
71.7990,113.0
71.8160,119.0
71.8330,116.0
71.8500,114.0
71.8670,125.0
71.8840,128.0
71.9010,129.0
71.9180,127.0
71.9350,125.0
71.9520,131.0
71.9690,127.0
71.9860,122.0
72.0030,126.0
72.0200,131.0
72.0370,125.0
72.0540,115.0
72.0710,120.0
72.0880,122.0
72.1050,117.0
72.1220,124.0
72.1390,109.0
72.1560,102.0
72.1730,109.0
72.1900,98.0
72.2070,95.0
72.2240,95.0
72.2410,108.0
72.2580,99.0
72.2750,113.0
72.2920,99.0
72.3090,91.0
72.3260,101.0
72.3430,100.0
72.3600,105.0
72.3770,111.0
72.3940,97.0
72.4110,91.0
72.4280,101.0
72.4450,94.0
72.4620,103.0
72.4790,104.0
72.4960,95.0
72.5130,102.0
72.5300,98.0
72.5470,99.0
72.5640,97.0
72.5810,85.0
72.5980,89.0
72.6150,95.0
72.6320,100.0
72.6490,101.0
72.6660,100.0
72.6830,99.0
72.7000,101.0
72.7170,104.0
72.7340,86.0
72.7510,79.0
72.7680,91.0
72.7850,93.0
72.8020,97.0
72.8190,93.0
72.8360,93.0
72.8530,94.0
72.8700,88.0
72.8870,94.0
72.9040,98.0
72.9210,89.0
72.9380,99.0
72.9550,98.0
72.9720,101.0
72.9890,102.0
73.0060,98.0
73.0230,96.0
73.0400,93.0
73.0570,99.0
73.0740,92.0
73.0910,83.0
73.1080,92.0
73.1250,100.0
73.1420,89.0
73.1590,95.0
73.1760,93.0
73.1930,94.0
73.2100,101.0
73.2270,93.0
73.2440,84.0
73.2610,98.0
73.2780,96.0
73.2950,95.0
73.3120,85.0
73.3290,88.0
73.3460,87.0
73.3630,85.0
73.3800,95.0
73.3970,91.0
73.4140,96.0
73.4310,86.0
73.4480,85.0
73.4650,95.0
73.4820,92.0
73.4990,93.0
73.5160,89.0
73.5330,87.0
73.5500,91.0
73.5670,100.0
73.5840,106.0
73.6010,94.0
73.6180,97.0
73.6350,96.0
73.6520,93.0
73.6690,91.0
73.6860,96.0
73.7030,106.0
73.7200,99.0
73.7370,99.0
73.7540,106.0
73.7710,108.0
73.7880,102.0
73.8050,102.0
73.8220,105.0
73.8390,103.0
73.8560,110.0
73.8730,121.0
73.8900,121.0
73.9070,114.0
73.9240,118.0
73.9410,124.0
73.9580,122.0
73.9750,137.0
73.9920,138.0
74.0090,137.0
74.0260,152.0
74.0430,145.0
74.0600,159.0
74.0770,146.0
74.0940,151.0
74.1110,142.0
74.1280,118.0
74.1450,116.0
74.1620,112.0
74.1790,100.0
74.1960,119.0
74.2130,105.0
74.2300,92.0
74.2470,103.0
74.2640,98.0
74.2810,93.0
74.2980,100.0
74.3150,83.0
74.3320,87.0
74.3490,88.0
74.3660,93.0
74.3830,99.0
74.4000,96.0
74.4170,96.0
74.4340,93.0
74.4510,83.0
74.4680,85.0
74.4850,86.0
74.5020,78.0
74.5190,90.0
74.5360,89.0
74.5530,82.0
74.5700,87.0
74.5870,91.0
74.6040,89.0
74.6210,80.0
74.6380,78.0
74.6550,86.0
74.6720,91.0
74.6890,87.0
74.7060,84.0
74.7230,85.0
74.7400,82.0
74.7570,77.0
74.7740,81.0
74.7910,88.0
74.8080,92.0
74.8250,84.0
74.8420,86.0
74.8590,81.0
74.8760,78.0
74.8930,83.0
74.9100,85.0
74.9270,81.0
74.9440,80.0
74.9610,80.0
74.9780,87.0
74.9950,82.0
75.0120,85.0
75.0290,77.0
75.0460,81.0
75.0630,78.0
75.0800,88.0
75.0970,90.0
75.1140,83.0
75.1310,80.0
75.1480,91.0
75.1650,78.0
75.1820,81.0
75.1990,86.0
75.2160,88.0
75.2330,70.0
75.2500,84.0
75.2670,91.0
75.2840,89.0
75.3010,92.0
75.3180,82.0
75.3350,84.0
75.3520,75.0
75.3690,82.0
75.3860,79.0
75.4030,80.0
75.4200,76.0
75.4370,81.0
75.4540,84.0
75.4710,75.0
75.4880,76.0
75.5050,76.0
75.5220,82.0
75.5390,83.0
75.5560,82.0
75.5730,83.0
75.5900,85.0
75.6070,82.0
75.6240,75.0
75.6410,74.0
75.6580,74.0
75.6750,77.0
75.6920,80.0
75.7090,85.0
75.7260,88.0
75.7430,83.0
75.7600,82.0
75.7770,83.0
75.7940,77.0
75.8110,75.0
75.8280,76.0
75.8450,80.0
75.8620,84.0
75.8790,85.0
75.8960,81.0
75.9130,78.0
75.9300,78.0
75.9470,75.0
75.9640,84.0
75.9810,95.0
75.9980,81.0
76.0150,87.0
76.0320,81.0
76.0490,82.0
76.0660,85.0
76.0830,70.0
76.1000,76.0
76.1170,79.0
76.1340,85.0
76.1510,93.0
76.1680,90.0
76.1850,84.0
76.2020,91.0
76.2190,81.0
76.2360,80.0
76.2530,89.0
76.2700,80.0
76.2870,80.0
76.3040,74.0
76.3210,74.0
76.3380,85.0
76.3550,77.0
76.3720,79.0
76.3890,73.0
76.4060,75.0
76.4230,80.0
76.4400,72.0
76.4570,75.0
76.4740,79.0
76.4910,78.0
76.5080,76.0
76.5250,76.0
76.5420,74.0
76.5590,76.0
76.5760,76.0
76.5930,77.0
76.6100,75.0
76.6270,73.0
76.6440,81.0
76.6610,80.0
76.6780,74.0
76.6950,77.0
76.7120,80.0
76.7290,76.0
76.7460,70.0
76.7630,71.0
76.7800,80.0
76.7970,80.0
76.8140,76.0
76.8310,74.0
76.8480,75.0
76.8650,71.0
76.8820,67.0
76.8990,68.0
76.9160,73.0
76.9330,73.0
76.9500,75.0
76.9670,76.0
76.9840,78.0
77.0010,83.0
77.0180,82.0
77.0350,83.0
77.0520,73.0
77.0690,74.0
77.0860,75.0
77.1030,74.0
77.1200,80.0
77.1370,68.0
77.1540,81.0
77.1710,79.0
77.1880,70.0
77.2050,78.0
77.2220,71.0
77.2390,82.0
77.2560,77.0
77.2730,72.0
77.2900,69.0
77.3070,77.0
77.3240,79.0
77.3410,76.0
77.3580,69.0
77.3750,78.0
77.3920,79.0
77.4090,77.0
77.4260,83.0
77.4430,83.0
77.4600,78.0
77.4770,72.0
77.4940,72.0
77.5110,66.0
77.5280,65.0
77.5450,74.0
77.5620,70.0
77.5790,73.0
77.5960,78.0
77.6130,73.0
77.6300,73.0
77.6470,73.0
77.6640,75.0
77.6810,79.0
77.6980,77.0
77.7150,73.0
77.7320,76.0
77.7490,71.0
77.7660,73.0
77.7830,75.0
77.8000,76.0
77.8170,74.0
77.8340,82.0
77.8510,76.0
77.8680,75.0
77.8850,67.0
77.9020,73.0
77.9190,72.0
77.9360,68.0
77.9530,76.0
77.9700,75.0
77.9870,79.0
78.0040,68.0
78.0210,66.0
78.0380,77.0
78.0550,72.0
78.0720,75.0
78.0890,69.0
78.1060,71.0
78.1230,81.0
78.1400,82.0
78.1570,73.0
78.1740,74.0
78.1910,72.0
78.2080,69.0
78.2250,71.0
78.2420,75.0
78.2590,77.0
78.2760,62.0
78.2930,74.0
78.3100,70.0
78.3270,71.0
78.3440,67.0
78.3610,77.0
78.3780,72.0
78.3950,66.0
78.4120,70.0
78.4290,71.0
78.4460,76.0
78.4630,72.0
78.4800,64.0
78.4970,67.0
78.5140,70.0
78.5310,74.0
78.5480,74.0
78.5650,73.0
78.5820,76.0
78.5990,82.0
78.6160,80.0
78.6330,74.0
78.6500,73.0
78.6670,73.0
78.6840,70.0
78.7010,70.0
78.7180,70.0
78.7350,73.0
78.7520,76.0
78.7690,77.0
78.7860,77.0
78.8030,74.0
78.8200,76.0
78.8370,72.0
78.8540,69.0
78.8710,70.0
78.8880,76.0
78.9050,73.0
78.9220,78.0
78.9390,80.0
78.9560,89.0
78.9730,82.0
78.9900,79.0
79.0070,83.0
79.0240,86.0
79.0410,82.0
79.0580,74.0
79.0750,76.0
79.0920,78.0
79.1090,80.0
79.1260,76.0
79.1430,81.0
79.1600,67.0
79.1770,74.0
79.1940,64.0
79.2110,82.0
79.2280,82.0
79.2450,77.0
79.2620,71.0
79.2790,71.0
79.2960,69.0
79.3130,72.0
79.3300,72.0
79.3470,79.0
79.3640,81.0
79.3810,81.0
79.3980,72.0
79.4150,73.0
79.4320,73.0
79.4490,74.0
79.4660,68.0
79.4830,71.0
79.5000,66.0
79.5170,66.0
79.5340,71.0
79.5510,72.0
79.5680,72.0
79.5850,76.0
79.6020,74.0
79.6190,73.0
79.6360,65.0
79.6530,67.0
79.6700,75.0
79.6870,78.0
79.7040,75.0
79.7210,69.0
79.7380,67.0
79.7550,64.0
79.7720,64.0
79.7890,66.0
79.8060,69.0
79.8230,75.0
79.8400,70.0
79.8570,66.0
79.8740,77.0
79.8910,67.0
79.9080,64.0
79.9250,72.0
79.9420,63.0
79.9590,66.0
79.9760,71.0
79.9930,67.0
80.0100,68.0
80.0270,65.0
80.0440,73.0
80.0610,71.0
80.0780,74.0
80.0950,72.0
80.1120,63.0
80.1290,66.0
80.1460,71.0
80.1630,69.0
80.1800,65.0
80.1970,71.0
80.2140,69.0
80.2310,70.0
80.2480,71.0
80.2650,74.0
80.2820,74.0
80.2990,73.0
80.3160,65.0
80.3330,64.0
80.3500,71.0
80.3670,65.0
80.3840,67.0
80.4010,68.0
80.4180,71.0
80.4350,68.0
80.4520,64.0
80.4690,72.0
80.4860,66.0
80.5030,70.0
80.5200,78.0
80.5370,76.0
80.5540,74.0
80.5710,71.0
80.5880,62.0
80.6050,64.0
80.6220,65.0
80.6390,64.0
80.6560,64.0
80.6730,68.0
80.6900,71.0
80.7070,69.0
80.7240,70.0
80.7410,68.0
80.7580,74.0
80.7750,73.0
80.7920,61.0
80.8090,61.0
80.8260,64.0
80.8430,70.0
80.8600,67.0
80.8770,64.0
80.8940,74.0
80.9110,67.0
80.9280,65.0
80.9450,64.0
80.9620,64.0
80.9790,73.0
80.9960,63.0
81.0130,62.0
81.0300,64.0
81.0470,63.0
81.0640,59.0
81.0810,66.0
81.0980,75.0
81.1150,73.0
81.1320,58.0
81.1490,71.0
81.1660,66.0
81.1830,69.0
81.2000,65.0
81.2170,63.0
81.2340,66.0
81.2510,66.0
81.2680,68.0
81.2850,70.0
81.3020,72.0
81.3190,70.0
81.3360,67.0
81.3530,68.0
81.3700,61.0
81.3870,74.0
81.4040,76.0
81.4210,65.0
81.4380,65.0
81.4550,74.0
81.4720,69.0
81.4890,65.0
81.5060,67.0
81.5230,70.0
81.5400,67.0
81.5570,62.0
81.5740,65.0
81.5910,67.0
81.6080,72.0
81.6250,67.0
81.6420,64.0
81.6590,69.0
81.6760,70.0
81.6930,71.0
81.7100,65.0
81.7270,63.0
81.7440,62.0
81.7610,62.0
81.7780,66.0
81.7950,73.0
81.8120,69.0
81.8290,74.0
81.8460,70.0
81.8630,70.0
81.8800,69.0
81.8970,69.0
81.9140,68.0
81.9310,69.0
81.9480,64.0
81.9650,67.0
81.9820,65.0
81.9990,65.0
82.0160,67.0
82.0330,58.0
82.0500,74.0
82.0670,72.0
82.0840,72.0
82.1010,65.0
82.1180,62.0
82.1350,66.0
82.1520,76.0
82.1690,64.0
82.1860,67.0
82.2030,67.0
82.2200,63.0
82.2370,68.0
82.2540,68.0
82.2710,62.0
82.2880,65.0
82.3050,72.0
82.3220,66.0
82.3390,69.0
82.3560,72.0
82.3730,68.0
82.3900,71.0
82.4070,69.0
82.4240,71.0
82.4410,71.0
82.4580,69.0
82.4750,67.0
82.4920,63.0
82.5090,71.0
82.5260,68.0
82.5430,68.0
82.5600,68.0
82.5770,69.0
82.5940,73.0
82.6110,73.0
82.6280,73.0
82.6450,70.0
82.6620,75.0
82.6790,68.0
82.6960,72.0
82.7130,77.0
82.7300,69.0
82.7470,79.0
82.7640,84.0
82.7810,70.0
82.7980,78.0
82.8150,83.0
82.8320,66.0
82.8490,81.0
82.8660,75.0
82.8830,81.0
82.9000,78.0
82.9170,71.0
82.9340,78.0
82.9510,78.0
82.9680,82.0
82.9850,81.0
83.0020,87.0
83.0190,81.0
83.0360,85.0
83.0530,99.0
83.0700,94.0
83.0870,99.0
83.1040,107.0
83.1210,95.0
83.1380,102.0
83.1550,106.0
83.1720,100.0
83.1890,88.0
83.2060,93.0
83.2230,90.0
83.2400,94.0
83.2570,90.0
83.2740,88.0
83.2910,90.0
83.3080,79.0
83.3250,90.0
83.3420,89.0
83.3590,82.0
83.3760,83.0
83.3930,76.0
83.4100,81.0
83.4270,81.0
83.4440,77.0
83.4610,76.0
83.4780,75.0
83.4950,81.0
83.5120,80.0
83.5290,76.0
83.5460,79.0
83.5630,70.0
83.5800,67.0
83.5970,68.0
83.6140,67.0
83.6310,65.0
83.6480,70.0
83.6650,69.0
83.6820,65.0
83.6990,67.0
83.7160,70.0
83.7330,73.0
83.7500,69.0
83.7670,64.0
83.7840,61.0
83.8010,63.0
83.8180,71.0
83.8350,69.0
83.8520,69.0
83.8690,65.0
83.8860,68.0
83.9030,66.0
83.9200,67.0
83.9370,66.0
83.9540,71.0
83.9710,65.0
83.9880,77.0
84.0050,56.0
84.0220,61.0
84.0390,71.0
84.0560,61.0
84.0730,70.0
84.0900,61.0
84.1070,72.0
84.1240,60.0
84.1410,69.0
84.1580,73.0
84.1750,67.0
84.1920,64.0
84.2090,73.0
84.2260,73.0
84.2430,62.0
84.2600,65.0
84.2770,72.0
84.2940,73.0
84.3110,64.0
84.3280,63.0
84.3450,72.0
84.3620,71.0
84.3790,67.0
84.3960,65.0
84.4130,60.0
84.4300,68.0
84.4470,71.0
84.4640,73.0
84.4810,74.0
84.4980,71.0
84.5150,66.0
84.5320,64.0
84.5490,75.0
84.5660,74.0
84.5830,65.0
84.6000,61.0
84.6170,59.0
84.6340,63.0
84.6510,65.0
84.6680,68.0
84.6850,73.0
84.7020,67.0
84.7190,65.0
84.7360,64.0
84.7530,67.0
84.7700,66.0
84.7870,68.0
84.8040,68.0
84.8210,67.0
84.8380,63.0
84.8550,72.0
84.8720,73.0
84.8890,69.0
84.9060,71.0
84.9230,74.0
84.9400,66.0
84.9570,72.0
84.9740,68.0
84.9910,63.0
